# VERSION_PHOTOMETRY: ADD_SPEC_SNIa-SALT2_cid1169202_mjd60411.735                 
# MJD:      60412.524                                                             
# NLAMBIN:   352                                                                  
#  
# WAVE FLUX FLUXERR                                                               
 4204.68      0.25684E-14   0.33613E-16
 4214.06      0.26621E-14   0.34102E-16
 4223.49      0.27274E-14   0.34386E-16
 4232.99      0.27618E-14   0.34470E-16
 4242.56      0.27658E-14   0.34361E-16
 4252.18      0.27387E-14   0.34055E-16
 4261.85      0.26770E-14   0.33548E-16
 4271.60      0.25937E-14   0.32910E-16
 4281.41      0.25058E-14   0.32239E-16
 4291.29      0.24394E-14   0.31660E-16
 4301.23      0.24092E-14   0.31367E-16
 4311.24      0.24026E-14   0.31194E-16
 4321.32      0.24325E-14   0.31270E-16
 4331.47      0.24935E-14   0.31548E-16
 4341.69      0.25594E-14   0.31826E-16
 4351.97      0.26337E-14   0.32157E-16
 4362.33      0.27165E-14   0.32542E-16
 4372.76      0.28018E-14   0.32907E-16
 4383.27      0.28960E-14   0.33327E-16
 4393.86      0.29817E-14   0.33686E-16
 4404.53      0.30409E-14   0.33876E-16
 4415.27      0.30795E-14   0.33978E-16
 4426.10      0.30821E-14   0.33840E-16
 4437.00      0.30605E-14   0.33595E-16
 4447.99      0.30134E-14   0.33211E-16
 4459.07      0.29679E-14   0.32837E-16
 4470.23      0.29266E-14   0.32458E-16
 4481.48      0.28962E-14   0.32182E-16
 4492.82      0.28678E-14   0.31887E-16
 4504.25      0.28493E-14   0.31662E-16
 4515.77      0.28173E-14   0.31355E-16
 4527.40      0.27728E-14   0.30984E-16
 4539.11      0.27095E-14   0.30494E-16
 4550.91      0.26283E-14   0.29921E-16
 4562.81      0.25325E-14   0.29253E-16
 4574.80      0.24277E-14   0.28535E-16
 4586.87      0.23161E-14   0.27755E-16
 4599.03      0.21966E-14   0.26947E-16
 4611.29      0.20725E-14   0.26101E-16
 4623.64      0.19617E-14   0.25346E-16
 4636.09      0.18912E-14   0.24825E-16
 4648.64      0.18749E-14   0.24646E-16
 4661.28      0.19060E-14   0.24771E-16
 4674.03      0.19840E-14   0.25203E-16
 4686.89      0.20721E-14   0.25678E-16
 4699.85      0.21440E-14   0.26046E-16
 4712.91      0.22028E-14   0.26332E-16
 4726.09      0.22468E-14   0.26520E-16
 4739.38      0.22825E-14   0.26640E-16
 4752.78      0.23313E-14   0.26839E-16
 4766.30      0.23914E-14   0.27106E-16
 4779.94      0.24674E-14   0.27455E-16
 4793.70      0.25585E-14   0.27881E-16
 4807.59      0.26658E-14   0.28360E-16
 4821.60      0.27915E-14   0.28928E-16
 4835.75      0.29415E-14   0.29614E-16
 4850.02      0.30974E-14   0.30286E-16
 4864.43      0.32218E-14   0.30799E-16
 4878.98      0.32851E-14   0.30994E-16
 4893.68      0.32967E-14   0.30958E-16
 4908.52      0.32563E-14   0.30670E-16
 4923.50      0.32153E-14   0.30376E-16
 4938.64      0.31886E-14   0.30166E-16
 4953.93      0.31728E-14   0.29994E-16
 4969.34      0.31590E-14   0.29826E-16
 4984.88      0.31173E-14   0.29519E-16
 5000.55      0.30296E-14   0.28896E-16
 5016.34      0.29074E-14   0.28122E-16
 5032.28      0.27600E-14   0.27232E-16
 5048.35      0.26292E-14   0.26405E-16
 5064.57      0.25169E-14   0.25657E-16
 5080.93      0.24251E-14   0.25039E-16
 5097.43      0.23629E-14   0.24540E-16
 5114.07      0.23305E-14   0.24208E-16
 5130.88      0.23311E-14   0.24054E-16
 5147.84      0.23433E-14   0.23944E-16
 5164.95      0.23220E-14   0.23684E-16
 5182.23      0.22516E-14   0.23176E-16
 5199.67      0.21409E-14   0.22443E-16
 5217.28      0.20550E-14   0.21859E-16
 5235.07      0.20247E-14   0.21551E-16
 5253.02      0.20595E-14   0.21588E-16
 5271.16      0.21293E-14   0.21803E-16
 5289.49      0.21901E-14   0.21957E-16
 5308.01      0.22332E-14   0.22016E-16
 5326.72      0.22591E-14   0.22008E-16
 5345.62      0.22705E-14   0.21888E-16
 5364.73      0.22699E-14   0.21757E-16
 5384.05      0.22624E-14   0.21673E-16
 5403.59      0.23069E-14   0.21851E-16
 5423.34      0.24209E-14   0.22343E-16
 5443.32      0.26029E-14   0.23115E-16
 5463.53      0.27913E-14   0.23888E-16
 5483.99      0.29621E-14   0.24561E-16
 5504.68      0.31126E-14   0.25130E-16
 5525.62      0.32406E-14   0.25579E-16
 5546.83      0.33482E-14   0.25971E-16
 5568.27      0.34141E-14   0.26171E-16
 5589.92      0.34054E-14   0.26090E-16
 5611.79      0.32948E-14   0.25607E-16
 5633.89      0.30939E-14   0.24786E-16
 5656.21      0.28701E-14   0.23831E-16
 5678.77      0.26411E-14   0.22806E-16
 5701.56      0.24501E-14   0.21937E-16
 5724.60      0.23924E-14   0.21636E-16
 5747.89      0.24872E-14   0.22012E-16
 5771.44      0.26226E-14   0.22562E-16
 5795.25      0.26800E-14   0.22772E-16
 5819.33      0.26437E-14   0.22566E-16
 5843.68      0.25505E-14   0.22123E-16
 5868.33      0.24153E-14   0.21495E-16
 5893.26      0.23081E-14   0.20969E-16
 5918.49      0.24164E-14   0.21414E-16
 5944.04      0.27628E-14   0.22845E-16
 5969.90      0.31446E-14   0.24312E-16
 5996.05      0.33493E-14   0.25039E-16
 6022.48      0.34063E-14   0.25202E-16
 6049.20      0.34299E-14   0.25243E-16
 6076.23      0.34397E-14   0.25216E-16
 6103.55      0.34185E-14   0.25089E-16
 6131.19      0.33471E-14   0.24784E-16
 6159.15      0.32479E-14   0.24318E-16
 6187.44      0.31790E-14   0.23960E-16
 6216.07      0.31594E-14   0.23783E-16
 6245.05      0.31978E-14   0.23818E-16
 6274.38      0.32963E-14   0.24083E-16
 6304.08      0.34224E-14   0.24429E-16
 6334.15      0.34890E-14   0.24556E-16
 6364.61      0.35106E-14   0.24516E-16
 6395.48      0.35296E-14   0.24474E-16
 6426.75      0.35541E-14   0.24438E-16
 6458.44      0.34112E-14   0.23840E-16
 6490.58      0.29842E-14   0.22199E-16
 6523.17      0.24126E-14   0.19876E-16
 6556.22      0.19233E-14   0.17702E-16
 6589.70      0.16026E-14   0.16134E-16
 6623.59      0.16354E-14   0.16255E-16
 6657.84      0.20040E-14   0.17938E-16
 6692.49      0.24761E-14   0.19878E-16
 6727.55      0.29571E-14   0.21658E-16
 6763.00      0.33018E-14   0.22819E-16
 6798.87      0.34290E-14   0.23196E-16
 6835.17      0.34493E-14   0.23205E-16
 6871.91      0.34471E-14   0.23140E-16
 6909.11      0.33925E-14   0.22894E-16
 6946.77      0.32518E-14   0.22365E-16
 6984.91      0.30865E-14   0.21737E-16
 7023.52      0.30249E-14   0.21472E-16
 7062.65      0.30161E-14   0.21387E-16
 7102.29      0.28888E-14   0.20884E-16
 7142.47      0.26600E-14   0.19998E-16
 7183.18      0.25024E-14   0.19347E-16
 7224.47      0.24476E-14   0.19093E-16
 7266.33      0.24238E-14   0.18955E-16
 7308.80      0.24054E-14   0.18836E-16
 7351.88      0.23678E-14   0.18636E-16
 7395.57      0.23007E-14   0.18322E-16
 7439.82      0.22135E-14   0.17920E-16
 7484.59      0.21201E-14   0.17493E-16
 7529.92      0.20502E-14   0.17158E-16
 7575.81      0.20209E-14   0.16986E-16
 7622.28      0.20140E-14   0.16913E-16
 7669.33      0.20110E-14   0.16848E-16
 7716.98      0.19985E-14   0.16776E-16
 7765.26      0.19596E-14   0.16618E-16
 7814.17      0.18874E-14   0.16318E-16
 7863.74      0.17746E-14   0.15830E-16
 7913.97      0.16428E-14   0.15245E-16
 7964.90      0.15294E-14   0.14720E-16
 8016.47      0.14251E-14   0.14220E-16
 8068.64      0.13081E-14   0.13637E-16
 8121.38      0.12154E-14   0.13136E-16
 8174.70      0.12692E-14   0.13394E-16
 8228.62      0.14629E-14   0.14347E-16
 8283.15      0.16186E-14   0.15056E-16
 8338.29      0.16871E-14   0.15340E-16
 8394.07      0.17436E-14   0.15568E-16
 8450.50      0.18265E-14   0.15904E-16
 8507.59      0.18696E-14   0.16055E-16
 8565.35      0.18061E-14   0.15754E-16
 8623.78      0.16676E-14   0.15108E-16
 8682.80      0.15305E-14   0.14445E-16
 8742.39      0.14030E-14   0.13808E-16
 8802.56      0.12672E-14   0.13108E-16
 8863.32      0.11233E-14   0.12320E-16
 8924.67      0.10754E-14   0.12011E-16
 8986.64      0.12149E-14   0.12716E-16
 9049.21      0.14833E-14   0.13978E-16
 9112.41      0.17004E-14   0.14902E-16
 9176.25      0.18343E-14   0.15418E-16
 9240.74      0.18953E-14   0.15615E-16
 9305.89      0.18940E-14   0.15562E-16
 9371.69      0.18548E-14   0.15360E-16
 9438.15      0.17718E-14   0.14974E-16
 9505.18      0.16219E-14   0.14295E-16
 9572.75      0.14701E-14   0.13582E-16
 9640.86      0.13915E-14   0.13177E-16
 9709.51      0.13434E-14   0.12917E-16
 9778.73      0.12718E-14   0.12545E-16
 9848.51      0.12280E-14   0.12294E-16
 9918.85      0.11979E-14   0.12120E-16
 9989.76      0.11677E-14   0.11933E-16
10061.25      0.10860E-14   0.11478E-16
10133.33      0.10284E-14   0.11138E-16
10205.99      0.98482E-15   0.10870E-16
10279.17      0.94211E-15   0.10603E-16
10352.81      0.90097E-15   0.10339E-16
10426.86      0.87095E-15   0.10143E-16
10501.32      0.83918E-15   0.99447E-17
10576.19      0.80872E-15   0.97617E-17
10651.49      0.77981E-15   0.95721E-17
10727.18      0.75204E-15   0.93977E-17
10803.31      0.72544E-15   0.92207E-17
10879.84      0.69620E-15   0.90104E-17
10956.81      0.66142E-15   0.87665E-17
11034.18      0.62173E-15   0.84795E-17
11111.89      0.58497E-15   0.82121E-17
11189.85      0.54984E-15   0.79485E-17
11268.05      0.52201E-15   0.77331E-17
11346.48      0.50751E-15   0.76131E-17
11425.14      0.50600E-15   0.75873E-17
11504.03      0.50930E-15   0.75984E-17
11583.17      0.51267E-15   0.76064E-17
11662.53      0.51439E-15   0.75943E-17
11742.12      0.51869E-15   0.75994E-17
11821.94      0.52097E-15   0.75911E-17
11901.99      0.51735E-15   0.75407E-17
11982.26      0.50646E-15   0.74417E-17
12062.77      0.49267E-15   0.73267E-17
12143.50      0.47696E-15   0.71964E-17
12224.45      0.46083E-15   0.70619E-17
12305.53      0.44570E-15   0.69341E-17
12386.62      0.43154E-15   0.68123E-17
12467.67      0.41901E-15   0.67028E-17
12548.69      0.40662E-15   0.65934E-17
12629.67      0.39225E-15   0.64671E-17
12710.61      0.37911E-15   0.63498E-17
12791.51      0.36663E-15   0.62334E-17
12872.38      0.35687E-15   0.61381E-17
12953.21      0.34793E-15   0.60486E-17
13034.01      0.34033E-15   0.59704E-17
13114.77      0.33531E-15   0.59134E-17
13195.50      0.33313E-15   0.58805E-17
13276.20      0.33385E-15   0.58711E-17
13356.86      0.33595E-15   0.58730E-17
13437.49      0.33635E-15   0.58619E-17
13518.09      0.33481E-15   0.58348E-17
13598.65      0.33034E-15   0.57835E-17
13679.19      0.32111E-15   0.56928E-17
13759.69      0.30836E-15   0.55699E-17
13840.17      0.29432E-15   0.54343E-17
13920.58      0.28054E-15   0.53005E-17
14000.85      0.26872E-15   0.51819E-17
14080.97      0.25853E-15   0.50777E-17
14160.92      0.24880E-15   0.49759E-17
14240.72      0.24059E-15   0.48884E-17
14320.36      0.23394E-15   0.48068E-17
14399.86      0.22801E-15   0.47303E-17
14479.20      0.22196E-15   0.46524E-17
14558.40      0.21536E-15   0.45684E-17
14637.45      0.20814E-15   0.44787E-17
14716.37      0.20065E-15   0.43922E-17
14795.14      0.19337E-15   0.43073E-17
14873.77      0.18645E-15   0.42263E-17
14952.27      0.17992E-15   0.41474E-17
15030.65      0.17385E-15   0.40737E-17
15108.88      0.16814E-15   0.40007E-17
15186.99      0.16240E-15   0.39278E-17
15264.97      0.15623E-15   0.38485E-17
15342.80      0.14986E-15   0.37668E-17
15420.41      0.14477E-15   0.36975E-17
15497.80      0.14040E-15   0.36332E-17
15574.96      0.13647E-15   0.35740E-17
15651.90      0.13253E-15   0.35142E-17
15728.63      0.12926E-15   0.34625E-17
15805.15      0.12653E-15   0.34178E-17
15881.45      0.12399E-15   0.33807E-17
15957.56      0.12169E-15   0.33460E-17
16033.47      0.11976E-15   0.33155E-17
16109.17      0.11818E-15   0.32898E-17
16184.69      0.11683E-15   0.32672E-17
16260.01      0.11608E-15   0.32514E-17
16335.15      0.11550E-15   0.32392E-17
16410.11      0.11446E-15   0.32197E-17
16484.89      0.11271E-15   0.31930E-17
16559.47      0.11008E-15   0.31542E-17
16633.85      0.10673E-15   0.31067E-17
16708.02      0.10297E-15   0.30543E-17
16782.00      0.99134E-16   0.29999E-17
16855.77      0.95489E-16   0.29479E-17
16929.35      0.91936E-16   0.28962E-17
17002.75      0.88400E-16   0.28396E-17
17075.96      0.85100E-16   0.27818E-17
17148.97      0.82181E-16   0.27309E-17
17221.81      0.80098E-16   0.26910E-17
17294.47      0.79101E-16   0.26677E-17
17366.90      0.79324E-16   0.26617E-17
17439.08      0.80962E-16   0.26759E-17
17510.97      0.83242E-16   0.26989E-17
17582.60      0.86074E-16   0.27288E-17
17653.96      0.89406E-16   0.27662E-17
17725.07      0.92829E-16   0.28026E-17
17795.91      0.95543E-16   0.28373E-17
17866.51      0.97178E-16   0.28569E-17
17936.86      0.97620E-16   0.28612E-17
18006.97      0.97370E-16   0.28567E-17
18076.85      0.96952E-16   0.28493E-17
18146.49      0.96786E-16   0.28479E-17
18215.90      0.96812E-16   0.28489E-17
18285.09      0.96850E-16   0.28509E-17
18354.06      0.96886E-16   0.28515E-17
18422.82      0.96796E-16   0.28524E-17
18491.35      0.96281E-16   0.28467E-17
18559.68      0.95590E-16   0.28336E-17
18627.81      0.95160E-16   0.28235E-17
18695.73      0.95219E-16   0.28206E-17
18763.45      0.95750E-16   0.28245E-17
18830.97      0.95885E-16   0.28226E-17
18898.31      0.95750E-16   0.28194E-17
18965.44      0.95436E-16   0.28155E-17
19032.35      0.94856E-16   0.28096E-17
19099.04      0.94092E-16   0.28021E-17
19165.53      0.93183E-16   0.27915E-17
19231.78      0.92081E-16   0.27796E-17
19297.83      0.91011E-16   0.27653E-17
19363.69      0.89815E-16   0.27477E-17
19429.33      0.88545E-16   0.27297E-17
19494.78      0.87373E-16   0.27140E-17
19560.03      0.86324E-16   0.26985E-17
19625.08      0.85436E-16   0.26872E-17
19689.96      0.84460E-16   0.26789E-17
19754.63      0.83373E-16   0.26710E-17
19819.12      0.82187E-16   0.26634E-17
19883.44      0.80853E-16   0.26542E-17
19947.57      0.79486E-16   0.26440E-17
20011.53      0.78113E-16   0.26346E-17
20075.32      0.76810E-16   0.26228E-17
20138.92      0.75474E-16   0.26104E-17
20202.35      0.74084E-16   0.25968E-17
20265.57      0.72588E-16   0.25822E-17
20328.59      0.71037E-16   0.25671E-17
20391.42      0.69442E-16   0.25525E-17
20454.05      0.67731E-16   0.25360E-17
20516.49      0.66029E-16   0.25196E-17
20578.75      0.64398E-16   0.25050E-17
20640.82      0.62910E-16   0.24935E-17
20702.72      0.61649E-16   0.24854E-17
20764.43      0.60480E-16   0.24784E-17
20825.97      0.59434E-16   0.24752E-17
20887.33      0.58363E-16   0.24714E-17
20948.53      0.57254E-16   0.24682E-17
20989.54      0.19397E-16   0.84852E-18
