# VERSION_PHOTOMETRY: ADD_SPEC_SNIa-SALT2_cid1262629_mjd60940.296                 
# MJD:      60941.086                                                             
# NLAMBIN:   352                                                                  
#  
# WAVE FLUX FLUXERR                                                               
 4204.68      0.16035E-14   0.26619E-16
 4214.06      0.16665E-14   0.27035E-16
 4223.49      0.17179E-14   0.27340E-16
 4232.99      0.17583E-14   0.27551E-16
 4242.56      0.17895E-14   0.27686E-16
 4252.18      0.18094E-14   0.27734E-16
 4261.85      0.18187E-14   0.27693E-16
 4271.60      0.18201E-14   0.27609E-16
 4281.41      0.18144E-14   0.27472E-16
 4291.29      0.18097E-14   0.27304E-16
 4301.23      0.18194E-14   0.27295E-16
 4311.24      0.18373E-14   0.27309E-16
 4321.32      0.18673E-14   0.27428E-16
 4331.47      0.19116E-14   0.27656E-16
 4341.69      0.19608E-14   0.27880E-16
 4351.97      0.20114E-14   0.28122E-16
 4362.33      0.20613E-14   0.28371E-16
 4372.76      0.21076E-14   0.28573E-16
 4383.27      0.21543E-14   0.28780E-16
 4393.86      0.21972E-14   0.28956E-16
 4404.53      0.22256E-14   0.29018E-16
 4415.27      0.22400E-14   0.29004E-16
 4426.10      0.22306E-14   0.28822E-16
 4437.00      0.22053E-14   0.28547E-16
 4447.99      0.21553E-14   0.28115E-16
 4459.07      0.21006E-14   0.27655E-16
 4470.23      0.20563E-14   0.27250E-16
 4481.48      0.20317E-14   0.26984E-16
 4492.82      0.20211E-14   0.26800E-16
 4504.25      0.20297E-14   0.26748E-16
 4515.77      0.20398E-14   0.26704E-16
 4527.40      0.20271E-14   0.26526E-16
 4539.11      0.19863E-14   0.26131E-16
 4550.91      0.19161E-14   0.25572E-16
 4562.81      0.18173E-14   0.24823E-16
 4574.80      0.17095E-14   0.23976E-16
 4586.87      0.16107E-14   0.23186E-16
 4599.03      0.15275E-14   0.22503E-16
 4611.29      0.14588E-14   0.21931E-16
 4623.64      0.14111E-14   0.21526E-16
 4636.09      0.13875E-14   0.21288E-16
 4648.64      0.13936E-14   0.21269E-16
 4661.28      0.14289E-14   0.21471E-16
 4674.03      0.14976E-14   0.21926E-16
 4686.89      0.15905E-14   0.22528E-16
 4699.85      0.16809E-14   0.23093E-16
 4712.91      0.17660E-14   0.23590E-16
 4726.09      0.18457E-14   0.24044E-16
 4739.38      0.19130E-14   0.24399E-16
 4752.78      0.19773E-14   0.24739E-16
 4766.30      0.20343E-14   0.25014E-16
 4779.94      0.20838E-14   0.25249E-16
 4793.70      0.21284E-14   0.25447E-16
 4807.59      0.21706E-14   0.25612E-16
 4821.60      0.22160E-14   0.25790E-16
 4835.75      0.22693E-14   0.26033E-16
 4850.02      0.23259E-14   0.26271E-16
 4864.43      0.23805E-14   0.26484E-16
 4878.98      0.24167E-14   0.26608E-16
 4893.68      0.24371E-14   0.26645E-16
 4908.52      0.24318E-14   0.26525E-16
 4923.50      0.24216E-14   0.26385E-16
 4938.64      0.24200E-14   0.26300E-16
 4953.93      0.24253E-14   0.26249E-16
 4969.34      0.24365E-14   0.26222E-16
 4984.88      0.24367E-14   0.26116E-16
 5000.55      0.24035E-14   0.25750E-16
 5016.34      0.23361E-14   0.25233E-16
 5032.28      0.22368E-14   0.24528E-16
 5048.35      0.21463E-14   0.23870E-16
 5064.57      0.20790E-14   0.23329E-16
 5080.93      0.20390E-14   0.22969E-16
 5097.43      0.20215E-14   0.22701E-16
 5114.07      0.20176E-14   0.22535E-16
 5130.88      0.20239E-14   0.22417E-16
 5147.84      0.20368E-14   0.22343E-16
 5164.95      0.20434E-14   0.22240E-16
 5182.23      0.20224E-14   0.21978E-16
 5199.67      0.19780E-14   0.21585E-16
 5217.28      0.19222E-14   0.21134E-16
 5235.07      0.18835E-14   0.20783E-16
 5253.02      0.18718E-14   0.20577E-16
 5271.16      0.18813E-14   0.20491E-16
 5289.49      0.18899E-14   0.20409E-16
 5308.01      0.18871E-14   0.20248E-16
 5326.72      0.18742E-14   0.20051E-16
 5345.62      0.18618E-14   0.19836E-16
 5364.73      0.18647E-14   0.19739E-16
 5384.05      0.18799E-14   0.19770E-16
 5403.59      0.19298E-14   0.20004E-16
 5423.34      0.20337E-14   0.20476E-16
 5443.32      0.21989E-14   0.21266E-16
 5463.53      0.23908E-14   0.22119E-16
 5483.99      0.25610E-14   0.22853E-16
 5504.68      0.27024E-14   0.23422E-16
 5525.62      0.28086E-14   0.23830E-16
 5546.83      0.28788E-14   0.24093E-16
 5568.27      0.28971E-14   0.24125E-16
 5589.92      0.28636E-14   0.23936E-16
 5611.79      0.27563E-14   0.23431E-16
 5633.89      0.25786E-14   0.22632E-16
 5656.21      0.23809E-14   0.21706E-16
 5678.77      0.22062E-14   0.20859E-16
 5701.56      0.20692E-14   0.20170E-16
 5724.60      0.20091E-14   0.19834E-16
 5747.89      0.20532E-14   0.20015E-16
 5771.44      0.21698E-14   0.20529E-16
 5795.25      0.22556E-14   0.20894E-16
 5819.33      0.22731E-14   0.20930E-16
 5843.68      0.22442E-14   0.20761E-16
 5868.33      0.21907E-14   0.20477E-16
 5893.26      0.21280E-14   0.20139E-16
 5918.49      0.21721E-14   0.20309E-16
 5944.04      0.23834E-14   0.21226E-16
 5969.90      0.26894E-14   0.22496E-16
 5996.05      0.28919E-14   0.23275E-16
 6022.48      0.29652E-14   0.23520E-16
 6049.20      0.29756E-14   0.23523E-16
 6076.23      0.29670E-14   0.23429E-16
 6103.55      0.29486E-14   0.23314E-16
 6131.19      0.29440E-14   0.23249E-16
 6159.15      0.29554E-14   0.23205E-16
 6187.44      0.29684E-14   0.23161E-16
 6216.07      0.29750E-14   0.23089E-16
 6245.05      0.29879E-14   0.23028E-16
 6274.38      0.30159E-14   0.23038E-16
 6304.08      0.30577E-14   0.23102E-16
 6334.15      0.30805E-14   0.23073E-16
 6364.61      0.30752E-14   0.22958E-16
 6395.48      0.30793E-14   0.22864E-16
 6426.75      0.31175E-14   0.22899E-16
 6458.44      0.31339E-14   0.22851E-16
 6490.58      0.30192E-14   0.22328E-16
 6523.17      0.27572E-14   0.21241E-16
 6556.22      0.23529E-14   0.19569E-16
 6589.70      0.18509E-14   0.17327E-16
 6623.59      0.16095E-14   0.16125E-16
 6657.84      0.17721E-14   0.16874E-16
 6692.49      0.21238E-14   0.18418E-16
 6727.55      0.24946E-14   0.19899E-16
 6763.00      0.27961E-14   0.21007E-16
 6798.87      0.29210E-14   0.21413E-16
 6835.17      0.29223E-14   0.21364E-16
 6871.91      0.29110E-14   0.21269E-16
 6909.11      0.28754E-14   0.21082E-16
 6946.77      0.27546E-14   0.20591E-16
 6984.91      0.25777E-14   0.19872E-16
 7023.52      0.25370E-14   0.19672E-16
 7062.65      0.26499E-14   0.20052E-16
 7102.29      0.26553E-14   0.20026E-16
 7142.47      0.24650E-14   0.19254E-16
 7183.18      0.22909E-14   0.18519E-16
 7224.47      0.22444E-14   0.18287E-16
 7266.33      0.22045E-14   0.18082E-16
 7308.80      0.20855E-14   0.17544E-16
 7351.88      0.19716E-14   0.17013E-16
 7395.57      0.19439E-14   0.16848E-16
 7439.82      0.19442E-14   0.16803E-16
 7484.59      0.19110E-14   0.16614E-16
 7529.92      0.18668E-14   0.16379E-16
 7575.81      0.18436E-14   0.16229E-16
 7622.28      0.18269E-14   0.16113E-16
 7669.33      0.17861E-14   0.15883E-16
 7716.98      0.17409E-14   0.15664E-16
 7765.26      0.17313E-14   0.15627E-16
 7814.17      0.17342E-14   0.15644E-16
 7863.74      0.16718E-14   0.15366E-16
 7913.97      0.15599E-14   0.14855E-16
 7964.90      0.14981E-14   0.14566E-16
 8016.47      0.14874E-14   0.14521E-16
 8068.64      0.14329E-14   0.14266E-16
 8121.38      0.13226E-14   0.13692E-16
 8174.70      0.12708E-14   0.13405E-16
 8228.62      0.13241E-14   0.13653E-16
 8283.15      0.14349E-14   0.14185E-16
 8338.29      0.15706E-14   0.14808E-16
 8394.07      0.16886E-14   0.15321E-16
 8450.50      0.17437E-14   0.15541E-16
 8507.59      0.16922E-14   0.15279E-16
 8565.35      0.14591E-14   0.14173E-16
 8623.78      0.11266E-14   0.12441E-16
 8682.80      0.10763E-14   0.12139E-16
 8742.39      0.13766E-14   0.13683E-16
 8802.56      0.16983E-14   0.15151E-16
 8863.32      0.18321E-14   0.15696E-16
 8924.67      0.18393E-14   0.15668E-16
 8986.64      0.18326E-14   0.15586E-16
 9049.21      0.18267E-14   0.15500E-16
 9112.41      0.18408E-14   0.15505E-16
 9176.25      0.18831E-14   0.15617E-16
 9240.74      0.19200E-14   0.15712E-16
 9305.89      0.18823E-14   0.15516E-16
 9371.69      0.17953E-14   0.15115E-16
 9438.15      0.17071E-14   0.14701E-16
 9505.18      0.15970E-14   0.14187E-16
 9572.75      0.14843E-14   0.13643E-16
 9640.86      0.14018E-14   0.13225E-16
 9709.51      0.13524E-14   0.12966E-16
 9778.73      0.12906E-14   0.12635E-16
 9848.51      0.12980E-14   0.12637E-16
 9918.85      0.13681E-14   0.12939E-16
 9989.76      0.13962E-14   0.13037E-16
10061.25      0.13172E-14   0.12633E-16
10133.33      0.12404E-14   0.12223E-16
10205.99      0.11927E-14   0.11949E-16
10279.17      0.11462E-14   0.11683E-16
10352.81      0.11270E-14   0.11550E-16
10426.86      0.11026E-14   0.11397E-16
10501.32      0.10609E-14   0.11169E-16
10576.19      0.10182E-14   0.10933E-16
10651.49      0.98212E-15   0.10727E-16
10727.18      0.95419E-15   0.10567E-16
10803.31      0.92894E-15   0.10411E-16
10879.84      0.89107E-15   0.10169E-16
10956.81      0.84810E-15   0.99009E-17
11034.18      0.80063E-15   0.95966E-17
11111.89      0.75193E-15   0.92863E-17
11189.85      0.70381E-15   0.89714E-17
11268.05      0.66007E-15   0.86689E-17
11346.48      0.63264E-15   0.84755E-17
11425.14      0.62449E-15   0.84058E-17
11504.03      0.63010E-15   0.84304E-17
11583.17      0.63868E-15   0.84718E-17
11662.53      0.64411E-15   0.84726E-17
11742.12      0.65019E-15   0.84880E-17
11821.94      0.65943E-15   0.85216E-17
11901.99      0.66461E-15   0.85210E-17
11982.26      0.65397E-15   0.84329E-17
12062.77      0.63682E-15   0.83039E-17
12143.50      0.61455E-15   0.81406E-17
12224.45      0.59052E-15   0.79690E-17
12305.53      0.56607E-15   0.77898E-17
12386.62      0.54876E-15   0.76579E-17
12467.67      0.53439E-15   0.75439E-17
12548.69      0.51856E-15   0.74204E-17
12629.67      0.49993E-15   0.72751E-17
12710.61      0.48091E-15   0.71258E-17
12791.51      0.46110E-15   0.69646E-17
12872.38      0.44556E-15   0.68343E-17
12953.21      0.42924E-15   0.66951E-17
13034.01      0.41973E-15   0.66070E-17
13114.77      0.41347E-15   0.65432E-17
13195.50      0.41006E-15   0.65004E-17
13276.20      0.40929E-15   0.64770E-17
13356.86      0.40828E-15   0.64528E-17
13437.49      0.40874E-15   0.64407E-17
13518.09      0.40790E-15   0.64182E-17
13598.65      0.40138E-15   0.63538E-17
13679.19      0.39004E-15   0.62524E-17
13759.69      0.37573E-15   0.61261E-17
13840.17      0.36006E-15   0.59878E-17
13920.58      0.34418E-15   0.58462E-17
14000.85      0.32878E-15   0.57079E-17
14080.97      0.31520E-15   0.55828E-17
14160.92      0.30422E-15   0.54775E-17
14240.72      0.29592E-15   0.53954E-17
14320.36      0.28852E-15   0.53121E-17
14399.86      0.28162E-15   0.52306E-17
14479.20      0.27523E-15   0.51533E-17
14558.40      0.26869E-15   0.50748E-17
14637.45      0.26233E-15   0.49985E-17
14716.37      0.25576E-15   0.49275E-17
14795.14      0.24838E-15   0.48495E-17
14873.77      0.24082E-15   0.47684E-17
14952.27      0.23349E-15   0.46893E-17
15030.65      0.22639E-15   0.46125E-17
15108.88      0.21927E-15   0.45323E-17
15186.99      0.21219E-15   0.44514E-17
15264.97      0.20509E-15   0.43698E-17
15342.80      0.19837E-15   0.42923E-17
15420.41      0.19274E-15   0.42245E-17
15497.80      0.18746E-15   0.41556E-17
15574.96      0.18256E-15   0.40903E-17
15651.90      0.17763E-15   0.40244E-17
15728.63      0.17362E-15   0.39681E-17
15805.15      0.17047E-15   0.39214E-17
15881.45      0.16751E-15   0.38829E-17
15957.56      0.16426E-15   0.38400E-17
16033.47      0.16108E-15   0.37991E-17
16109.17      0.15886E-15   0.37684E-17
16184.69      0.15733E-15   0.37446E-17
16260.01      0.15670E-15   0.37314E-17
16335.15      0.15663E-15   0.37240E-17
16410.11      0.15661E-15   0.37175E-17
16484.89      0.15633E-15   0.37084E-17
16559.47      0.15425E-15   0.36793E-17
16633.85      0.15047E-15   0.36325E-17
16708.02      0.14542E-15   0.35729E-17
16782.00      0.13991E-15   0.35059E-17
16855.77      0.13469E-15   0.34423E-17
16929.35      0.12964E-15   0.33798E-17
17002.75      0.12461E-15   0.33110E-17
17075.96      0.11968E-15   0.32380E-17
17148.97      0.11492E-15   0.31684E-17
17221.81      0.11123E-15   0.31122E-17
17294.47      0.10915E-15   0.30748E-17
17366.90      0.10861E-15   0.30580E-17
17439.08      0.10949E-15   0.30577E-17
17510.97      0.11245E-15   0.30842E-17
17582.60      0.11546E-15   0.31105E-17
17653.96      0.11940E-15   0.31474E-17
17725.07      0.12363E-15   0.31873E-17
17795.91      0.12758E-15   0.32305E-17
17866.51      0.13030E-15   0.32599E-17
17936.86      0.13133E-15   0.32706E-17
18006.97      0.13132E-15   0.32690E-17
18076.85      0.13078E-15   0.32608E-17
18146.49      0.13051E-15   0.32582E-17
18215.90      0.13056E-15   0.32592E-17
18285.09      0.13125E-15   0.32675E-17
18354.06      0.13125E-15   0.32688E-17
18422.82      0.13126E-15   0.32698E-17
18491.35      0.13050E-15   0.32627E-17
18559.68      0.12895E-15   0.32402E-17
18627.81      0.12733E-15   0.32167E-17
18695.73      0.12635E-15   0.32011E-17
18763.45      0.12645E-15   0.31977E-17
18830.97      0.12650E-15   0.31948E-17
18898.31      0.12655E-15   0.31926E-17
18965.44      0.12613E-15   0.31888E-17
19032.35      0.12538E-15   0.31817E-17
19099.04      0.12452E-15   0.31730E-17
19165.53      0.12351E-15   0.31632E-17
19231.78      0.12238E-15   0.31520E-17
19297.83      0.12108E-15   0.31366E-17
19363.69      0.11960E-15   0.31172E-17
19429.33      0.11817E-15   0.30987E-17
19494.78      0.11704E-15   0.30839E-17
19560.03      0.11577E-15   0.30679E-17
19625.08      0.11474E-15   0.30549E-17
19689.96      0.11393E-15   0.30500E-17
19754.63      0.11269E-15   0.30437E-17
19819.12      0.11130E-15   0.30356E-17
19883.44      0.10975E-15   0.30260E-17
19947.57      0.10812E-15   0.30155E-17
20011.53      0.10641E-15   0.30038E-17
20075.32      0.10471E-15   0.29896E-17
20138.92      0.10317E-15   0.29770E-17
20202.35      0.10157E-15   0.29634E-17
20265.57      0.99982E-16   0.29502E-17
20328.59      0.98344E-16   0.29365E-17
20391.42      0.96541E-16   0.29213E-17
20454.05      0.94498E-16   0.29037E-17
20516.49      0.92278E-16   0.28837E-17
20578.75      0.89759E-16   0.28600E-17
20640.82      0.87516E-16   0.28412E-17
20702.72      0.85545E-16   0.28253E-17
20764.43      0.83618E-16   0.28099E-17
20825.97      0.81851E-16   0.27984E-17
20887.33      0.80277E-16   0.27901E-17
20948.53      0.78710E-16   0.27805E-17
20989.54      0.26631E-16   0.95458E-18
