# VERSION_PHOTOMETRY: ADD_SPEC_SNIa-SALT2_cid1600377_mjd60949.647                 
# MJD:      60950.438                                                             
# NLAMBIN:   352                                                                  
#  
# WAVE FLUX FLUXERR                                                               
 4204.68      0.62206E-16   0.59214E-17
 4214.06      0.59170E-16   0.57834E-17
 4223.49      0.55968E-16   0.56375E-17
 4232.99      0.52920E-16   0.54950E-17
 4242.56      0.50204E-16   0.53646E-17
 4252.18      0.48057E-16   0.52544E-17
 4261.85      0.46268E-16   0.51580E-17
 4271.60      0.44920E-16   0.50817E-17
 4281.41      0.43990E-16   0.50225E-17
 4291.29      0.43600E-16   0.49787E-17
 4301.23      0.43872E-16   0.49710E-17
 4311.24      0.44608E-16   0.49758E-17
 4321.32      0.46021E-16   0.50105E-17
 4331.47      0.48341E-16   0.50828E-17
 4341.69      0.51219E-16   0.51681E-17
 4351.97      0.54830E-16   0.52797E-17
 4362.33      0.59114E-16   0.54142E-17
 4372.76      0.63333E-16   0.55376E-17
 4383.27      0.66824E-16   0.56337E-17
 4393.86      0.69584E-16   0.57030E-17
 4404.53      0.71519E-16   0.57384E-17
 4415.27      0.72800E-16   0.57586E-17
 4426.10      0.72968E-16   0.57352E-17
 4437.00      0.72577E-16   0.57006E-17
 4447.99      0.72500E-16   0.56716E-17
 4459.07      0.73136E-16   0.56679E-17
 4470.23      0.74458E-16   0.56829E-17
 4481.48      0.76682E-16   0.57302E-17
 4492.82      0.79637E-16   0.57924E-17
 4504.25      0.83701E-16   0.58915E-17
 4515.77      0.88048E-16   0.59909E-17
 4527.40      0.92578E-16   0.60952E-17
 4539.11      0.97079E-16   0.61916E-17
 4550.91      0.10161E-15   0.62888E-17
 4562.81      0.10618E-15   0.63831E-17
 4574.80      0.11076E-15   0.64745E-17
 4586.87      0.11525E-15   0.65606E-17
 4599.03      0.11946E-15   0.66422E-17
 4611.29      0.12337E-15   0.67170E-17
 4623.64      0.12698E-15   0.67878E-17
 4636.09      0.13037E-15   0.68487E-17
 4648.64      0.13343E-15   0.69010E-17
 4661.28      0.13667E-15   0.69529E-17
 4674.03      0.14067E-15   0.70272E-17
 4686.89      0.14550E-15   0.71147E-17
 4699.85      0.15092E-15   0.72114E-17
 4712.91      0.15718E-15   0.73249E-17
 4726.09      0.16325E-15   0.74343E-17
 4739.38      0.16675E-15   0.74811E-17
 4752.78      0.16758E-15   0.74757E-17
 4766.30      0.16500E-15   0.74038E-17
 4779.94      0.15933E-15   0.72610E-17
 4793.70      0.15075E-15   0.70602E-17
 4807.59      0.14117E-15   0.68313E-17
 4821.60      0.13167E-15   0.65960E-17
 4835.75      0.12239E-15   0.63647E-17
 4850.02      0.11309E-15   0.61246E-17
 4864.43      0.10434E-15   0.58919E-17
 4878.98      0.97705E-16   0.57062E-17
 4893.68      0.93745E-16   0.55875E-17
 4908.52      0.92502E-16   0.55346E-17
 4923.50      0.94140E-16   0.55586E-17
 4938.64      0.97621E-16   0.56314E-17
 4953.93      0.10086E-15   0.56933E-17
 4969.34      0.10337E-15   0.57347E-17
 4984.88      0.10529E-15   0.57570E-17
 5000.55      0.10703E-15   0.57556E-17
 5016.34      0.11134E-15   0.58179E-17
 5032.28      0.12014E-15   0.59760E-17
 5048.35      0.13395E-15   0.62355E-17
 5064.57      0.15295E-15   0.65771E-17
 5080.93      0.17399E-15   0.69335E-17
 5097.43      0.19238E-15   0.72146E-17
 5114.07      0.20762E-15   0.74298E-17
 5130.88      0.21876E-15   0.75622E-17
 5147.84      0.22667E-15   0.76345E-17
 5164.95      0.23186E-15   0.76678E-17
 5182.23      0.23419E-15   0.76506E-17
 5199.67      0.23354E-15   0.75862E-17
 5217.28      0.23152E-15   0.75066E-17
 5235.07      0.23124E-15   0.74500E-17
 5253.02      0.23411E-15   0.74420E-17
 5271.16      0.23991E-15   0.74761E-17
 5289.49      0.24775E-15   0.75411E-17
 5308.01      0.25552E-15   0.76003E-17
 5326.72      0.26296E-15   0.76538E-17
 5345.62      0.26961E-15   0.76893E-17
 5364.73      0.27408E-15   0.76995E-17
 5384.05      0.27305E-15   0.76690E-17
 5403.59      0.26744E-15   0.75810E-17
 5423.34      0.25739E-15   0.74276E-17
 5443.32      0.24864E-15   0.72963E-17
 5463.53      0.24416E-15   0.72171E-17
 5483.99      0.24334E-15   0.71933E-17
 5504.68      0.24214E-15   0.71662E-17
 5525.62      0.23535E-15   0.70542E-17
 5546.83      0.22108E-15   0.68373E-17
 5568.27      0.20185E-15   0.65352E-17
 5589.92      0.18455E-15   0.62538E-17
 5611.79      0.17138E-15   0.60291E-17
 5633.89      0.16267E-15   0.58745E-17
 5656.21      0.16029E-15   0.58232E-17
 5678.77      0.16599E-15   0.59078E-17
 5701.56      0.17857E-15   0.61036E-17
 5724.60      0.19267E-15   0.63111E-17
 5747.89      0.20493E-15   0.64873E-17
 5771.44      0.21495E-15   0.66205E-17
 5795.25      0.22353E-15   0.67347E-17
 5819.33      0.23031E-15   0.68175E-17
 5843.68      0.23596E-15   0.68845E-17
 5868.33      0.24193E-15   0.69536E-17
 5893.26      0.24930E-15   0.70400E-17
 5918.49      0.25745E-15   0.71346E-17
 5944.04      0.26214E-15   0.71832E-17
 5969.90      0.26218E-15   0.71684E-17
 5996.05      0.25885E-15   0.71114E-17
 6022.48      0.25696E-15   0.70729E-17
 6049.20      0.25735E-15   0.70641E-17
 6076.23      0.25526E-15   0.70234E-17
 6103.55      0.24628E-15   0.68892E-17
 6131.19      0.23124E-15   0.66748E-17
 6159.15      0.21821E-15   0.64704E-17
 6187.44      0.21086E-15   0.63380E-17
 6216.07      0.20794E-15   0.62698E-17
 6245.05      0.20740E-15   0.62352E-17
 6274.38      0.20834E-15   0.62207E-17
 6304.08      0.20636E-15   0.61633E-17
 6334.15      0.19914E-15   0.60338E-17
 6364.61      0.19113E-15   0.58929E-17
 6395.48      0.18766E-15   0.58163E-17
 6426.75      0.18794E-15   0.57923E-17
 6458.44      0.18747E-15   0.57566E-17
 6490.58      0.18546E-15   0.57018E-17
 6523.17      0.18435E-15   0.56582E-17
 6556.22      0.18574E-15   0.56609E-17
 6589.70      0.19362E-15   0.57610E-17
 6623.59      0.21171E-15   0.59929E-17
 6657.84      0.23522E-15   0.62837E-17
 6692.49      0.25402E-15   0.65030E-17
 6727.55      0.26649E-15   0.66376E-17
 6763.00      0.27219E-15   0.66862E-17
 6798.87      0.26995E-15   0.66423E-17
 6835.17      0.25601E-15   0.64604E-17
 6871.91      0.23099E-15   0.61370E-17
 6909.11      0.20693E-15   0.58113E-17
 6946.77      0.18954E-15   0.55637E-17
 6984.91      0.18613E-15   0.55023E-17
 7023.52      0.19773E-15   0.56478E-17
 7062.65      0.20659E-15   0.57534E-17
 7102.29      0.20517E-15   0.57217E-17
 7142.47      0.19808E-15   0.56145E-17
 7183.18      0.19093E-15   0.55050E-17
 7224.47      0.20407E-15   0.56660E-17
 7266.33      0.23757E-15   0.60753E-17
 7308.80      0.25936E-15   0.63171E-17
 7351.88      0.26303E-15   0.63436E-17
 7395.57      0.26174E-15   0.63126E-17
 7439.82      0.25923E-15   0.62626E-17
 7484.59      0.25832E-15   0.62349E-17
 7529.92      0.25815E-15   0.62166E-17
 7575.81      0.25689E-15   0.61868E-17
 7622.28      0.25695E-15   0.61676E-17
 7669.33      0.25971E-15   0.61826E-17
 7716.98      0.26076E-15   0.61868E-17
 7765.26      0.25869E-15   0.61661E-17
 7814.17      0.26023E-15   0.61895E-17
 7863.74      0.26082E-15   0.61963E-17
 7913.97      0.24415E-15   0.60089E-17
 7964.90      0.20780E-15   0.55730E-17
 8016.47      0.15626E-15   0.48824E-17
 8068.64      0.13018E-15   0.44955E-17
 8121.38      0.15230E-15   0.48241E-17
 8174.70      0.18799E-15   0.53084E-17
 8228.62      0.21889E-15   0.56931E-17
 8283.15      0.23012E-15   0.58175E-17
 8338.29      0.22861E-15   0.57900E-17
 8394.07      0.22513E-15   0.57390E-17
 8450.50      0.21433E-15   0.55982E-17
 8507.59      0.19724E-15   0.53728E-17
 8565.35      0.19525E-15   0.53362E-17
 8623.78      0.20095E-15   0.53976E-17
 8682.80      0.18774E-15   0.52184E-17
 8742.39      0.16988E-15   0.49718E-17
 8802.56      0.16348E-15   0.48749E-17
 8863.32      0.15635E-15   0.47650E-17
 8924.67      0.14422E-15   0.45758E-17
 8986.64      0.13787E-15   0.44660E-17
 9049.21      0.13658E-15   0.44293E-17
 9112.41      0.13301E-15   0.43600E-17
 9176.25      0.12858E-15   0.42769E-17
 9240.74      0.12607E-15   0.42243E-17
 9305.89      0.12315E-15   0.41678E-17
 9371.69      0.11847E-15   0.40854E-17
 9438.15      0.11556E-15   0.40296E-17
 9505.18      0.11454E-15   0.40030E-17
 9572.75      0.10909E-15   0.39062E-17
 9640.86      0.10011E-15   0.37506E-17
 9709.51      0.95744E-16   0.36678E-17
 9778.73      0.93617E-16   0.36237E-17
 9848.51      0.85321E-16   0.34724E-17
 9918.85      0.75857E-16   0.32942E-17
 9989.76      0.76825E-16   0.33037E-17
10061.25      0.85203E-16   0.34433E-17
10133.33      0.93719E-16   0.35765E-17
10205.99      0.10045E-15   0.36752E-17
10279.17      0.10339E-15   0.37104E-17
10352.81      0.10021E-15   0.36482E-17
10426.86      0.85536E-16   0.33969E-17
10501.32      0.65372E-16   0.30282E-17
10576.19      0.62925E-16   0.29788E-17
10651.49      0.80246E-16   0.32951E-17
10727.18      0.95798E-16   0.35526E-17
10803.31      0.99992E-16   0.36165E-17
10879.84      0.99007E-16   0.35904E-17
10956.81      0.98778E-16   0.35776E-17
11034.18      0.99225E-16   0.35749E-17
11111.89      0.98779E-16   0.35581E-17
11189.85      0.97522E-16   0.35300E-17
11268.05      0.96243E-16   0.35028E-17
11346.48      0.93317E-16   0.34483E-17
11425.14      0.89494E-16   0.33804E-17
11504.03      0.85410E-16   0.33066E-17
11583.17      0.79488E-16   0.31993E-17
11662.53      0.73511E-16   0.30846E-17
11742.12      0.69323E-16   0.29991E-17
11821.94      0.66758E-16   0.29426E-17
11901.99      0.63503E-16   0.28721E-17
11982.26      0.63251E-16   0.28587E-17
12062.77      0.65592E-16   0.28959E-17
12143.50      0.67113E-16   0.29167E-17
12224.45      0.64037E-16   0.28541E-17
12305.53      0.59519E-16   0.27642E-17
12386.62      0.56798E-16   0.27061E-17
12467.67      0.54323E-16   0.26529E-17
12548.69      0.52277E-16   0.26074E-17
12629.67      0.51329E-16   0.25834E-17
12710.61      0.49839E-16   0.25482E-17
12791.51      0.47792E-16   0.25000E-17
12872.38      0.45826E-16   0.24530E-17
12953.21      0.44079E-16   0.24101E-17
13034.01      0.42668E-16   0.23741E-17
13114.77      0.41339E-16   0.23398E-17
13195.50      0.39981E-16   0.23046E-17
13276.20      0.38033E-16   0.22550E-17
13356.86      0.36207E-16   0.22079E-17
13437.49      0.34223E-16   0.21574E-17
13518.09      0.32305E-16   0.21080E-17
13598.65      0.30416E-16   0.20581E-17
13679.19      0.28625E-16   0.20106E-17
13759.69      0.27246E-16   0.19720E-17
13840.17      0.26463E-16   0.19479E-17
13920.58      0.26213E-16   0.19367E-17
14000.85      0.26310E-16   0.19350E-17
14080.97      0.26493E-16   0.19354E-17
14160.92      0.26549E-16   0.19329E-17
14240.72      0.26619E-16   0.19308E-17
14320.36      0.26736E-16   0.19256E-17
14399.86      0.26979E-16   0.19236E-17
14479.20      0.27047E-16   0.19160E-17
14558.40      0.26624E-16   0.18973E-17
14637.45      0.25972E-16   0.18736E-17
14716.37      0.25229E-16   0.18512E-17
14795.14      0.24397E-16   0.18266E-17
14873.77      0.23540E-16   0.18016E-17
14952.27      0.22674E-16   0.17757E-17
15030.65      0.22013E-16   0.17557E-17
15108.88      0.21473E-16   0.17369E-17
15186.99      0.20993E-16   0.17200E-17
15264.97      0.20462E-16   0.17026E-17
15342.80      0.19837E-16   0.16813E-17
15420.41      0.19212E-16   0.16608E-17
15497.80      0.18506E-16   0.16358E-17
15574.96      0.17878E-16   0.16129E-17
15651.90      0.17387E-16   0.15935E-17
15728.63      0.16795E-16   0.15715E-17
15805.15      0.16367E-16   0.15542E-17
15881.45      0.16073E-16   0.15433E-17
15957.56      0.15833E-16   0.15339E-17
16033.47      0.15660E-16   0.15266E-17
16109.17      0.15591E-16   0.15220E-17
16184.69      0.15544E-16   0.15175E-17
16260.01      0.15490E-16   0.15136E-17
16335.15      0.15475E-16   0.15108E-17
16410.11      0.15444E-16   0.15077E-17
16484.89      0.15341E-16   0.15020E-17
16559.47      0.15067E-16   0.14926E-17
16633.85      0.14713E-16   0.14809E-17
16708.02      0.14275E-16   0.14683E-17
16782.00      0.13799E-16   0.14538E-17
16855.77      0.13314E-16   0.14397E-17
16929.35      0.12839E-16   0.14250E-17
17002.75      0.12380E-16   0.14081E-17
17075.96      0.11946E-16   0.13906E-17
17148.97      0.11565E-16   0.13738E-17
17221.81      0.11233E-16   0.13597E-17
17294.47      0.10965E-16   0.13462E-17
17366.90      0.10709E-16   0.13341E-17
17439.08      0.10473E-16   0.13225E-17
17510.97      0.10247E-16   0.13103E-17
17582.60      0.10037E-16   0.12997E-17
17653.96      0.98311E-17   0.12887E-17
17725.07      0.96235E-17   0.12782E-17
17795.91      0.94128E-17   0.12723E-17
17866.51      0.92104E-17   0.12663E-17
17936.86      0.89965E-17   0.12606E-17
18006.97      0.87710E-17   0.12544E-17
18076.85      0.85444E-17   0.12478E-17
18146.49      0.83227E-17   0.12425E-17
18215.90      0.81081E-17   0.12384E-17
18285.09      0.78958E-17   0.12338E-17
18354.06      0.76917E-17   0.12298E-17
18422.82      0.74828E-17   0.12261E-17
18491.35      0.72810E-17   0.12222E-17
18559.68      0.70823E-17   0.12159E-17
18627.81      0.68836E-17   0.12094E-17
18695.73      0.67128E-17   0.12038E-17
18763.45      0.65612E-17   0.11996E-17
18830.97      0.64119E-17   0.11949E-17
18898.31      0.62721E-17   0.11922E-17
18965.44      0.61337E-17   0.11909E-17
19032.35      0.59973E-17   0.11897E-17
19099.04      0.58766E-17   0.11900E-17
19165.53      0.57689E-17   0.11907E-17
19231.78      0.56763E-17   0.11920E-17
19297.83      0.55886E-17   0.11924E-17
19363.69      0.55020E-17   0.11920E-17
19429.33      0.54044E-17   0.11915E-17
19494.78      0.53130E-17   0.11913E-17
19560.03      0.52342E-17   0.11922E-17
19625.08      0.51729E-17   0.11941E-17
19689.96      0.51155E-17   0.11989E-17
19754.63      0.50760E-17   0.12070E-17
19819.12      0.50478E-17   0.12161E-17
19883.44      0.50239E-17   0.12247E-17
19947.57      0.50010E-17   0.12349E-17
20011.53      0.49799E-17   0.12448E-17
20075.32      0.49404E-17   0.12534E-17
20138.92      0.48747E-17   0.12611E-17
20202.35      0.47788E-17   0.12683E-17
20265.57      0.46627E-17   0.12750E-17
20328.59      0.45309E-17   0.12823E-17
20391.42      0.43930E-17   0.12904E-17
20454.05      0.42552E-17   0.12990E-17
20516.49      0.41257E-17   0.13081E-17
20578.75      0.39981E-17   0.13184E-17
20640.82      0.38731E-17   0.13301E-17
20702.72      0.37506E-17   0.13419E-17
20764.43      0.36276E-17   0.13550E-17
20825.97      0.35057E-17   0.13685E-17
20887.33      0.33943E-17   0.13837E-17
20948.53      0.32993E-17   0.14000E-17
20989.54      0.11136E-17   0.48723E-18
